x,y,theta
0.0,0.0,-1.6701055612333737
-0.0019758873885569682,-0.02007948480279318,-1.6688838307569778
-0.004034652265065843,-0.04106026730008414,-1.6678366332057817
-0.007117962756307248,-0.07273397275091822,-1.6678366332057817
-0.009544135111725763,-0.097657141785232,-1.6678366332057815
-0.011909762824963007,-0.12195835815907803,-1.6678366332057815
-0.014234681237637466,-0.1458413829823819,-1.6678366332057815
-0.016186274013964132,-0.1658893719646588,-1.6678366332057815
-0.01917313635548811,-0.1964121815663535,-1.668883830756978
-0.021686795944138165,-0.22195664822067812,-1.668883830756978
-0.02367504831705788,-0.2421617892309234,-1.668883830756978
-0.02665877761254604,-0.27139451859256913,-1.6744688843633597
-0.029335077936417715,-0.2961063076713414,-1.6809266025957386
-0.03194120496821573,-0.31832467504647854,-1.6875588537533175
-0.03512780747375888,-0.3428953316023973,-1.7093754694032461
-0.04044615688719929,-0.3763257958938247,-1.7399187313131468
-0.04679673150716454,-0.41003112792625984,-1.767145867644259
-0.05386069314487047,-0.4423531154086803,-1.7955947344517658
-0.06071907394813566,-0.47042338477897866,-1.817236817176496
-0.06585270953520549,-0.490351606768354,-1.8249162658852711
-0.0720569729819608,-0.5138172176386052,-1.829279589015257
-0.07922780685194304,-0.5409385671190533,-1.829279589015257
-0.08467806072505678,-0.561552381736718,-1.8292795890152567
-0.09329066443791534,-0.5943251801906424,-1.8271851939128638
-0.10256979185984108,-0.629886504261264,-1.8259634634364674
-0.10915485992943623,-0.655187362860817,-1.824916265885271
-0.11661380209231965,-0.6839737957314237,-1.8238690683340741
-0.12168313245090041,-0.7035754418113156,-1.8238690683340741
-0.12726442660204312,-0.7252503159146189,-1.8228218707828776
-0.13501729019781122,-0.7555250110307613,-1.8205529427552851
-0.14149114066885535,-0.7809904418667125,-1.8184585476528916
-0.14672822623284382,-0.801809393472597,-1.817236817176496
-0.15500399459535336,-0.8347080007104327,-1.817236817176496
-0.16096972312602603,-0.8585289337967713,-1.8161896196252991
-0.16721533626866542,-0.8834674357733595,-1.8161896196252996
-0.17410839231743555,-0.9109911532965267,-1.8161896196252996
-0.1800122349698241,-0.9345649783627772,-1.8161896196252996
-0.1867018602752662,-0.9613955999903432,-1.8151424220741028
-0.1931408973560573,-0.9873368655202662,-1.814095224522906
-0.19984979752380838,-1.0144869105605696,-1.8130480269717095
-0.2092245069861855,-1.0524251385531045,-1.8130480269717097
-0.21571400123227125,-1.0785196999170907,-1.8151424220741028
-0.22188509679798296,-1.1032405791726936,-1.8161896196252996
-0.2268234635312679,-1.1229592946496978,-1.8161896196253
-0.23382024420772293,-1.1508452529804378,-1.8172368171764959
-0.24049666307394393,-1.177385976743334,-1.8172368171764959
-0.2480161813597431,-1.2072782680528522,-1.8172368171764957
-0.25499584619965004,-1.235147811271532,-1.8161896196252996
-0.2599094581036069,-1.254767681631807,-1.8161896196252993
-0.26733372907086606,-1.2842813369058725,-1.8172368171764959
-0.2729740629323388,-1.3067033188017732,-1.8172368171764959
-0.2861391197702453,-1.3585957228528327,-1.8195057452040886
-0.29134665696349465,-1.3787379821434929,-1.8259634634364676
-0.31611086834353,-1.4732007077115203,-1.8271851939128638
-0.33967920897627757,-1.5450022450510406,-1.8893189152838616
-0.3482834084681863,-1.5664397616312522,-1.9558159597848457
-0.3567540802072491,-1.586608482963721,-1.9722220547535927
-0.3702054110212134,-1.61663313582881,-1.995085867954718
-0.380696140370623,-1.6387362190346975,-2.021265806734633
-0.3957170513329443,-1.668537160289437,-2.03767190170338
-0.4125590146996146,-1.6992593447421416,-2.081305133003238
-0.4248512651688469,-1.720545228087151,-2.0977112279719843
-0.4371471488873662,-1.7406421316942873,-2.122669436275504
-0.44797953775742505,-1.7579372496621177,-2.130348884984279
-0.4647597314438147,-1.7834079544026271,-2.163161074921772
-0.4789611830758701,-1.8040193269856726,-2.18829381615049
-0.49617586895035326,-1.8272643917933011,-2.2132520244540097
-0.5200650636733886,-1.857985432824882,-2.236115837655135
-0.5465531382510677,-1.8909888897459932,-2.2471114119426994
-0.5726674905451661,-1.9204286624188802,-2.3005184870537256
-0.590281995148479,-1.9391463872331156,-2.327920156310037
-0.6083729484087701,-1.9576590374491152,-2.3464206463811768
-0.6247287544905896,-1.9737347270785182,-2.3659683340035134
-0.6486111791697486,-1.9959757471971031,-2.4008749190433996
-0.6774198751085623,-2.021463838800088,-2.4239132651697246
-0.6971524217872892,-2.038018684735882,-2.4455553478944547
-0.7150891369635947,-2.0525478874010425,-2.4609142453120048
-0.7407250671740777,-2.0721239991943143,-2.4979152254542845
-0.7658612890838022,-2.090302211359221,-2.5176374460018205
-0.7917539266203811,-2.107919640883502,-2.55149683349051
-0.8253216109916361,-2.129536947757323,-2.5743606466916362
-0.8468399377330962,-2.1428217495476316,-2.5884978136327903
-0.8791624210200132,-2.1612966998111616,-2.624626129149073
-0.9012239989641341,-2.1732495695245984,-2.6474899423501985
-0.9250156594913246,-2.1855593940192146,-2.6649432348701416
-0.9457638412497342,-2.19550761064419,-2.6986280894336323
-0.9744317979030858,-2.208566853577566,-2.720619238008761
-0.9985834541292803,-2.218931086510139,-2.738072530528704
-1.025317829299542,-2.229853581187069,-2.7555258230486475
-1.05876226419648,-2.242472104641939,-2.789210677612138
-1.0813981471469651,-2.250657244190198,-2.7946211982933207
-1.1027938993583073,-2.257479127257713,-2.8361600344907854
-1.123371503965245,-2.263644518158896,-2.8546605245619254
-1.14889452512437,-2.2708623483462116,-2.8700194219794755
-1.1808802702942887,-2.2789470745812803,-2.8951521632081936
-1.2014994557793506,-2.2837079773280466,-2.9255208921928952
-1.2249504165596241,-2.288540434636853,-2.9441959151892343
-1.2657689185884422,-2.2959548753110175,-2.968106925941557
-1.2860206106088923,-2.299056748854385,-2.993239667170275
-1.3149224339491774,-2.302857454241885,-3.0204668035013866
-1.3359604023360108,-2.305241791556376,-3.036872898470133
-1.3560453763323241,-2.3071476546658265,-3.0499628678600907
-1.38441058812356,-2.309294367366767,-3.0738738786124133
-1.4192639428724445,-2.3110441163352786,-3.0990066198411315
-1.44555599829106,-2.3117398730989547,-3.119776037939864
-1.4719563041731112,-2.3119014214264055,-3.1372293304598076
-1.493444503465211,-2.3116529619332074,3.128502684199836
-1.5155396325739199,-2.3109585114000817,3.1045916734475134
-1.5396721709852756,-2.3099301805796135,3.099006619841132
-1.5637122959972969,-2.3082514824425955,3.0674161603800343
-1.5866029770292476,-2.306482252954194,3.0641000348012453
-1.628748099920385,-2.3032097638402766,3.0641000348012453
-1.649016892609434,-2.3016572820823598,3.065147232352442
-1.678424692208718,-2.299466749017332,3.0674161603800343
-1.7016449169522376,-2.297792666288302,3.0707322859588233
-1.7319120155029415,-2.2957080163845456,3.073873878612414
-1.7589391503222738,-2.2939924773207094,3.079458932218795
-1.7850045225217146,-2.2924537349854757,3.0838222553487813
-1.8112406811511061,-2.290946873263234,3.084869452899978
-1.8439649403131102,-2.2890003449536653,3.0794589322187953
-1.8705250794752946,-2.287188750202806,3.069685088407627
-1.8942458510561049,-2.2852599518236576,3.057642316568866
-1.9151906886083507,-2.2833504563305205,3.0476939398324983
-1.9372446099277465,-2.2810528331326085,3.0347785033677406
-1.9795349162949765,-2.2758115671639887,3.0127873547926116
-2.018156441452569,-2.2699906718939045,2.984513020910304
-2.0398217016057787,-2.266368532807164,2.974739177099135
-2.065789288247675,-2.2614943272708246,2.95170083097281
-2.0854234501233266,-2.257629038003597,2.9441959151892347
-2.11455913751337,-2.2516584291536335,2.9387853945080518
-2.153268781171864,-2.243744683257706,2.9408797896104453
-2.1799120518779618,-2.2383530980496773,2.941926987161642
-2.2071572761990312,-2.2328693935230652,2.9429741847128383
-2.245756862285527,-2.2253027449770935,2.9496064358704173
-2.283885610887435,-2.2179885090813136,2.9529225614492063
-2.304662856793838,-2.214100813675065,2.9572858845791923
-2.3454736522020667,-2.2066223300541177,2.9616492077091783
-2.3797112684192347,-2.2004627356460014,2.963743602811571
-2.4160228966188684,-2.194068878225061,2.9681069259415573
-2.44333725668595,-2.189338123811611,2.97037585396915
-2.4712353396922766,-2.184565807863984,2.9724702490715424
-2.494060668114373,-2.1806683030730327,2.9724702490715424
-2.521171581031438,-2.1759910297992766,2.9703758539691494
-2.552336622354015,-2.170496583840351,2.9670597283903604
-2.5739467523461834,-2.166540054593657,2.9604274772327823
-2.6202211315922863,-2.1578645353325974,2.9562386870279953
-2.6479752064131445,-2.15231407565327,2.9429741847128383
-2.667639851886612,-2.1482948698535225,2.9387853945080518
-2.6882038660434153,-2.143995077594493,2.935469268929263
-2.7118016173429083,-2.138953386974895,2.931105945799277
-2.7362370137209244,-2.13364794234934,2.927789820220488
-2.7639518977048074,-2.127117493173302,2.907020402121755
-2.7977735260005945,-2.1187686295001376,2.8982937558617836
-2.8239154862299047,-2.1119291604335904,2.8818876608930375
-2.8544203118703537,-2.1034815943015097,2.8689722244282785
-2.8763705234880756,-2.0971824308013955,2.860245578168307
-2.9076044020343113,-2.0877337978678847,2.8438394831995604
-2.9326489398934643,-2.07983728541286,2.836160034490786
-2.9882663268372673,-2.0601154670528485,2.799159054348506
-3.0134717288875366,-2.0505704773507754,2.77943683380097
-3.0383710795701084,-2.039965891064853,2.7248080282135474
-3.0607220232666346,-2.029571956243236,2.7063075381424078
-3.0837946651234325,-2.018252387108431,2.6780332042600996
-3.101763540337085,-2.008850498115989,2.659532714188959
-3.131097962419006,-1.9929642224909285,2.642079421669016
-3.1538868918801315,-1.979978020427645,2.6234043986726765
-3.1768903814618032,-1.9659872784620873,2.5874506160815938
-3.1977304328256397,-1.9525825069876985,2.5699973235616502
-3.223014109106875,-1.9356441456544997,2.542770187230539
-3.2419541991499035,-1.9221642137014814,2.523047966683003
-3.2630010820355815,-1.906726393356863,2.4958208303518914
-3.279730656464346,-1.8936558173180953,2.4783675378319483
-3.306402399898053,-1.871999414310244,2.4511404015008367
-3.3275212235142577,-1.853962234959934,2.43473430653209
-3.3517029296340524,-1.8325313942711061,2.41623381646095
-3.3711962054799165,-1.814335460095932,2.390053877681035
-3.394295542429668,-1.7910975089194607,2.3474678439323733
-3.4512058544494213,-1.7322885247854027,2.3397883952235987
-3.4761228298801408,-1.7020132798570005,2.2535691301750784
-3.4941670721783815,-1.67876596037794,2.2209314731627843
-3.5063984185927164,-1.6624153673476683,2.2045253781940377
-3.5215596165213006,-1.6414555944762428,2.1970204624104626
-3.53359272153348,-1.623924084141794,2.165255470024166
-3.5509706739830142,-1.5970423764647068,2.140122728795447
-3.5618914184252652,-1.5795612442649167,2.1238911667519003
-3.577386751663704,-1.5537412622610265,2.109753999810746
-3.590501082777472,-1.530503489490047,2.076941809873252
-3.600450772111938,-1.5118380262276485,2.0605357149045056
-3.6118175834012987,-1.4898157548360904,2.0354029736757875
-3.6207271170236894,-1.4713443798812416,2.0202186091834364
-3.6370840907160735,-1.4367565601044734,2.0125391604746614
-3.647950281794199,-1.4117239348296675,1.9799015034623673
-3.6611926823739966,-1.3779448134391237,1.9383626672649026
-3.669741955857597,-1.3546985617990932,1.9154988540637765
-3.679718684676353,-1.3252547874885021,1.8926350408626502
-3.6898682797127527,-1.2923523092527722,1.8598228509251573
-3.6959326649668385,-1.2713692467724063,1.852143402216383
-3.7055250669822413,-1.2352987829245894,1.8282323914640604
-3.713572435353349,-1.2004646153284424,1.7910568783965806
-3.721579139727081,-1.160852972870621,1.7606881494118796
-3.729891941785169,-1.1097573785117323,1.7289231570255827
-3.733581544530017,-1.078937798200957,1.6809266025957394
-3.7369108957244928,-1.041976923753148,1.6570155918434168
-3.7395430222344164,-1.0043849119349646,1.64060949687467
-3.7408206861661037,-0.9608009465463816,1.591565744893629
-3.740839922165821,-0.9179907261549066,1.5653858061137138
-3.740444813124379,-0.8931306693912053,1.5479325135937707
-3.739640612899517,-0.8611392966713792,1.5456635855661782
-3.7385824554350657,-0.8190454140847021,1.5456635855661782
-3.737731752166018,-0.7826261345525211,1.547932513593771
-3.7372221422748435,-0.7585235401276602,1.5500269086961642
-3.7367880946247305,-0.7306692555720299,1.556659159853743
-3.736446740430656,-0.7034681589935305,1.5587535549561355
-3.736186799030918,-0.6768733895785661,1.561022482983728
-3.7360678517829764,-0.6565971145536311,1.5653858061137138
-3.7358491359610815,-0.6064714586340162,1.5664330036649112
-3.7357667962862235,-0.5777494145333841,1.5674802012161078
-3.7356476499201468,-0.5563347495590555,1.5641640756373192
-3.7353647372769845,-0.5301910919334544,1.5599752854325317
-3.7349545979089562,-0.5065530595627624,1.5533430342749535
-3.7342366860301563,-0.4822487567536562,1.5392058673337998
-3.733443892401763,-0.4612130164437204,1.5304792210738278
-3.7318423643255496,-0.4278710795208501,1.5227997723650533
-3.729629280307065,-0.3887413747554827,1.5130259285538847
-3.728330256057573,-0.36586483178967644,1.514073126105081
-3.726737302370267,-0.33741184686608555,1.5163420541326738
-3.724518822815176,-0.2967118940837543,1.5163420541326735
-3.7228070374442876,-0.2653076904214839,1.516342054132674
-3.7208962872231224,-0.23073174514751957,1.5151203236562778
-3.71897914085433,-0.19556001390140754,1.5163420541326738
-3.7175708444702753,-0.16901390078494433,1.518436449235067
-3.7151702950102146,-0.12266904236586613,1.5194836467862634
-3.7135790403387747,-0.09168531983400387,1.5194836467862634
-3.712457064075741,-0.06983903598949834,1.5194836467862634
-3.711035486422318,-0.0415814699483174,1.5205308443374594
-3.709925096998057,-0.018979055397627034,1.5217525748138556
-3.7087618372214237,0.0047207416450101795,1.5217525748138556
-3.707135719501121,0.037850624335672114,1.5217525748138558
-3.705746880203358,0.06727027078944312,1.5238469699162496
-3.7042850695760734,0.09838329352327797,1.5238469699162493
-3.703328361990469,0.11874575655709732,1.5238469699162493
-3.7022759705762103,0.14174405916676064,1.5250687003926455
-3.701237854398678,0.16443039969690584,1.5250687003926457
-3.6998530052464425,0.19469402541669367,1.5250687003926455
-3.6986814093503586,0.2202973480866648,1.5250687003926453
-3.6971734893732657,0.2532504865049981,1.5250687003926455
-3.6956845529933204,0.2857887692851183,1.5250687003926455
-3.69437260105699,0.31513223843867455,1.5261158979438418
-3.6934828159940953,0.3355116669077031,1.527163095495039
-3.692500002954609,0.3585760086102917,1.5282102930462353
-3.6915726250096297,0.3803394172659444,1.528210293046235
-3.6902932223029032,0.41177473320591534,1.5304792210738276
-3.6893772568275813,0.4344814507143756,1.5304792210738278
-3.687909619719836,0.47158370309892705,1.5315264186250241
-3.6871404361050426,0.49169763483464324,1.5325736161762207
-3.686391999319856,0.5118989723542752,1.5337953466526164
-3.6850185041899075,0.5496930441195856,1.5348425442038134
-3.684151884629956,0.5737863674458729,1.5348425442038134
-3.6822747900336164,0.6275393237426479,1.5358897417550095
-3.6814753012184593,0.6511214922771038,1.536936939306207
-3.6806952033738547,0.6741520242255711,1.5369369393062071
-3.679174776060289,0.7204726637938292,1.5379841368574036
-3.677871821953292,0.7625325181691996,1.5402530648849961
-3.677235789771057,0.7840701129096967,1.5413002624361924
-3.676635045977337,0.8052894818776154,1.5425219929125886
-3.675955311392442,0.8293237683389612,1.5425219929125884
-3.6748130913279526,0.8637794355660855,1.53588974175501
-3.673825476996129,0.8879951165335207,1.5271630954950386
-3.6708774571787632,0.9411848511175862,1.5118041980774888
-3.6675670143059698,0.9778522627470294,1.4737560203840117
-3.665286054687592,0.9983246945547853,1.4540337998364765
-3.6586427021745918,1.0459249308829408,1.4257594659541684
-3.652040173517339,1.0881843017124786,1.4158110892178004
-3.6447219379320934,1.121781264462658,1.349314044716816
-3.6370212282468235,1.1525569366879564,1.3198179803581118
-3.631586548475721,1.1724320112880702,1.301317490286972
-3.622820859775481,1.2030016006714994,1.2915436464758034
-3.6136599505983993,1.2312738678882778,1.2533209358571284
-3.6061752476268425,1.2527067656604172,1.2348204457859882
-3.5960327918025565,1.280112632919316,1.2086405070060737
-3.584098687874284,1.3100257006694438,1.19118721448613
-3.5676086621166054,1.3484389699337667,1.1639600781550181
-3.555491826525937,1.3741188497255978,1.1191051163787642
-3.5432033407285255,1.3988955560300604,1.1103784701187929
-3.5239337601317526,1.4369108569524096,1.101651823858821
-3.50398093960205,1.4712739603533027,1.0395181024878233
-3.4892329583472805,1.4949458359118053,1.013338163707908
-3.4763765488271297,1.5145869685421984,0.9861110273767965
-3.4637674598189343,1.5328922113033825,0.9676105373056566
-3.4439122184951265,1.56052547790827,0.9403834009745452
-3.4280862617518677,1.5813829640233308,0.921708377978205
-3.405758464383171,1.6097188826937,0.9032078879070655
-3.391619516148004,1.6266468217712589,0.8705702308947718
-3.3756536353850604,1.6450920472413928,0.8531169383748287
-3.35227890219727,1.6707173147753678,0.8269369995949136
-3.336158372139382,1.6877157601492803,0.8105309046261671
-3.3182889804503213,1.7056628159438163,0.7843509658462519
-3.286975793060323,1.7352963325476196,0.7494443808063649
-3.2664086854166023,1.7537722657054513,0.7232644420264497
-3.249735151389852,1.7679826389482753,0.7058111495065068
-3.231541364964767,1.783060179295466,0.6883578569865638
-3.2067708254444365,1.802576886399657,0.663225115757845
-3.190742006424682,1.8149029216673793,0.6555456670490706
-3.172094107001115,1.8289857629007833,0.6468190207890984
-3.1438165562066094,1.8489216015336423,0.6119124357492124
-3.1223020249983486,1.8630139028357475,0.5759586531581287
-3.10434466574585,1.87436364239359,0.5595525581893822
-3.0722413375712674,1.8936293299226776,0.5356415474370594
-3.0476463173600656,1.9077631163568785,0.5094616086571445
-3.028605035395149,1.9179943662174097,0.49305551368839795
-3.009254954474957,1.9281749362779528,0.4843288674284269
-2.9802488284604,1.9428011663607179,0.4668755749084835
-2.9591102556001845,1.9527548220414983,0.439648438577372
-2.9334575683837656,1.9642828633418001,0.42219514605742814
-2.899754234288623,1.9779954452538053,0.37960911230876637
-2.870856724901229,1.9889437321863936,0.3621558197888233
-2.8334063309630495,2.0015699707077,0.31747539093776855
-2.8017903017156285,2.0112069671320536,0.2900737216814575
-2.7786753573788094,2.0176694740332906,0.27262042916151447
-2.758825543658629,2.0228112238492506,0.24644049038159938
-2.734423836904248,2.0285840399692003,0.23230332344044527
-2.714777465146114,2.0330511921941623,0.22357667718047416
-2.68093101280487,2.0397510200975164,0.18989182261698304
-2.6608801888494367,2.043445506427555,0.18221237390820844
-2.6269087342251543,2.048859960048617,0.1560324351282934
-2.58380809147552,2.0543894587823806,0.12322024519080024
-2.553633277286322,2.0573326206413793,0.0959931088596886
-2.5228672748356757,2.0595106504796434,0.06876597252857701
-2.502875079272751,2.0605164150389017,0.05026548245743647
-2.4466169918936456,2.0616786503742683,0.015358897417550272
-2.41537172283058,2.0608855200284655,-0.029496064358704163
-2.393228136382205,2.060038719706547,-0.03822271061867582
-2.3573280823961857,2.0575742641431947,-0.074176493209759
-2.3252744544193966,2.054910813050047,-0.08290313946973064
-2.300002234855937,2.052131409271745,-0.11013027580084218
-2.268364267100435,2.048560275467728,-0.11239920382843482
