x,y,theta
0.0,0.0,0.029496064358704773
0.021101464710568254,-0.0006733985722696882,-0.03159045946109739
0.05530441377309507,-0.001665546807331475,-0.028274333882308378
0.09741447509115474,-0.0025426727583070735,-0.020769418098732118
0.13413716979925353,-0.0036581003305780546,-0.030543261909900414
0.16932010615923396,-0.004447556154382177,-0.021816615649928654
0.21132925579198866,-0.005464049064024655,-0.024085543677520922
0.24772324256105727,-0.006478741974034027,-0.028274333882307937
0.27658236406768133,-0.0077434807226689105,-0.044680428851054284
0.29737549458224355,-0.0091298944022241,-0.06876597252857587
0.31796568814110554,-0.010857297971423076,-0.10367255756846294
0.34778858532769696,-0.014146542388624537,-0.11344640137963037
0.37388071206878554,-0.017667050007722607,-0.13857914260834917
0.4037117705148239,-0.021928753059838487,-0.14294246573833488
0.4236124399545825,-0.024742234535919245,-0.14067353771074195
0.4468509913892399,-0.0281162483212314,-0.1439896632895321
0.4701854042704388,-0.03162007214960116,-0.15166911199830665
0.49198953158422687,-0.03496001508913943,-0.15603243512829246
0.5131752793666396,-0.03834885826547238,-0.1591740277818823
0.5375606288891988,-0.04222555284278904,-0.15603243512829243
0.5582590095375012,-0.04542921699998082,-0.14940018397071445
0.5809464741167041,-0.04845673563007845,-0.12322024519079888
0.6070058177584852,-0.05118785308898019,-0.09599310885968705
0.6285836896603593,-0.053205572225013646,-0.09267698328089824
0.6485401181901608,-0.05511635065339566,-0.09267698328089805
0.6714818542842713,-0.05712632670796139,-0.0839503370209265
0.6916964541802036,-0.05883715375545939,-0.08517206749732244
0.7126097163445427,-0.06056526863082493,-0.07853981633974418
0.7391837020456153,-0.06277835352751972,-0.08936085770210946
0.7599169169611188,-0.06468777617238256,-0.08936085770210922
0.7798861932623748,-0.06641735976867608,-0.08290313946973014
0.8013418497688417,-0.06821602495933751,-0.08290313946972973
0.8279068703278667,-0.07035556416054495,-0.08185594191853339
0.8513784100700185,-0.07230231190267623,-0.08185594191853342
0.8740783851586,-0.07415883313678523,-0.08517206749732263
0.8957661955067714,-0.07597776133705976,-0.08395033702092669
0.923228105324978,-0.07834055089422108,-0.08517206749732263
0.9470564642017896,-0.08038660936834148,-0.08517206749732242
0.9703731654975606,-0.08229099462368636,-0.08063421144213745
0.9906692416339042,-0.08391052377160953,-0.08185594191853363
1.0112795785463697,-0.08558460340149332,-0.07749261878854785
1.0325114701843643,-0.08730785090608328,-0.08185594191853364
1.0541665962304196,-0.08912063873149578,-0.08290313946972949
1.0780113743875632,-0.09121308860772237,-0.09494591130849075
1.1040619018882765,-0.09386839793538626,-0.10803588069844869
1.1256880232703086,-0.0963499657547569,-0.11885692206081354
1.1483242470770634,-0.09920143651970861,-0.130899693899575
1.1709384971038934,-0.102379047429868,-0.14398966328953208
1.1965701421137502,-0.10640970742075871,-0.1624901533606717
1.219756298703325,-0.11055273200225724,-0.18325957145940405
1.2431495478829888,-0.11512371210086056,-0.1986184688769541
1.2658173245756517,-0.11994526541394632,-0.21485003092050214
1.2926701205792086,-0.1260969576949704,-0.23020892833805195
1.3127710514774493,-0.1309834987903915,-0.24434609527920584
1.334669265486725,-0.13675016034178158,-0.26616271092913485
1.356393589191716,-0.14305539869270006,-0.28902652413026086
1.377434559797991,-0.14945646292515324,-0.29775317039023186
1.4013382609687894,-0.15701932597100388,-0.3162536604613726
1.4210462516728681,-0.1635955132204199,-0.32829643230013345
1.4401131221044203,-0.17023655546116118,-0.33929200658769704
1.464949030796786,-0.1792546361381021,-0.3556981015564435
1.485364087127691,-0.18704883386198198,-0.37315139407638753
1.5085186929773398,-0.19623383020406227,-0.38065630985996246
1.5284044064521027,-0.2043438328140786,-0.391651884147527
1.5491409966499199,-0.21340118544751616,-0.4209734155810317
1.567452490436192,-0.2217455435022675,-0.43301618741979253
1.5882899796707102,-0.23160944967165514,-0.4461061568097504
1.6085970971690757,-0.24160957515041742,-0.46582837735728605
1.626611897314572,-0.25090037358298034,-0.4865977954560188
1.6461930694278302,-0.2615675756901773,-0.5094616086571441
1.6647446941743318,-0.27227686987720473,-0.5344198169606632
1.684441037397355,-0.2840519718218741,-0.5410520681182414
1.7023955707559293,-0.2950144547883052,-0.5551892350593953
1.720451119122149,-0.30636010832602545,-0.5628686837681709
1.738942177387782,-0.3181358874709901,-0.5738642580557352
1.7579724245855397,-0.3307178097089871,-0.5923647481268751
1.7746627474072905,-0.34209979728388606,-0.6021385919380434
1.7924939050726922,-0.3545004535430875,-0.6162757588791978
1.809842785898609,-0.3668760825490629,-0.6239552075879721
1.8266346536411766,-0.37927321273479425,-0.6447246256867052
1.845252915304097,-0.39346335811614724,-0.6544984694978729
1.8620539943156926,-0.40666767801002035,-0.6719517620178166
1.8776653802804446,-0.4194393287694715,-0.691499449640153
1.8955906837486802,-0.4344432582317585,-0.7024950239277176
1.915992998940517,-0.4523351170154183,-0.729722160258829
1.9376650466774747,-0.4723807135658704,-0.7525859734599543
1.95789420153289,-0.49217163284724386,-0.7820820378186583
1.9775644122853264,-0.5119881821285458,-0.7920304145550263
1.9963194110883518,-0.5315670251110625,-0.8082619765985734
2.01029030273131,-0.5466640812200503,-0.8410741665360664
2.028433431798366,-0.56719765816916,-0.8508480103472351
2.045541590464582,-0.5873461706740284,-0.8660323748395856
2.0653124893961277,-0.6117421645416777,-0.8934340440958968
2.082541152445386,-0.6340341328936115,-0.9173450548482194
2.100936813409855,-0.659378117872435,-0.949110047234516
2.11289989854273,-0.6764743123595152,-0.9686577348568522
2.124795356521857,-0.6940239436557206,-0.9840166322744024
2.1427114703976993,-0.7213651376945099,-0.9958848711879638
2.157133513754521,-0.7437639603146319,-0.9992009967667536
2.1695625109393926,-0.7634819289308146,-1.008974840577921
2.1855599311526506,-0.7896545883959702,-1.0264281330978644
2.196295342082262,-0.8076843731369471,-1.0405653000390185
2.20623921214479,-0.8250686208158025,-1.0636036461653435
2.2175031123424573,-0.8461717636588683,-1.0864674593664703
2.226763802005377,-0.8639118717778379,-1.0929251775988489
2.236149178385488,-0.8822816785402439,-1.103920751886413
2.245580046895138,-0.9012079142757214,-1.1149163261739776
2.254814558406041,-0.920647811605982,-1.1334168162451173
2.2632170011709514,-0.9390801533592655,-1.147553983186271
2.2730752192551313,-0.9616819251938766,-1.162738347678622
2.2813424253849117,-0.9810670968418386,-1.1747811195173827
2.2895905958839293,-1.0015654456929317,-1.2021827887736938
2.29732862429935,-1.0223811900249427,-1.22173047639603
2.304306246553202,-1.0423190830126463,-1.2424998944947636
2.3110510715356307,-1.0623895386943503,-1.2500048102783383
2.3176527819015753,-1.0825725940454796,-1.2653637076958884
2.3239362094865292,-1.1031801695450032,-1.278453677085846
2.329608278807797,-1.122741145923614,-1.3013174902869717
2.3350367410156463,-1.1427779591464096,-1.316676387704522
2.3405927967649967,-1.1653127999736848,-1.3405873984568437
2.3448400411659662,-1.1849395051771288,-1.3646729421343657
2.34930580115899,-1.2060906384120087,-1.3624040141067733
2.353286242772461,-1.225770353326395,-1.3788101090755198
2.357655398927701,-1.2493559752106504,-1.3995795271742528
2.361278376094421,-1.2714021496647139,-1.4158110892178002
2.3643992819704396,-1.2921257693001287,-1.4224433403753785
2.367343358677011,-1.3128555673333777,-1.438849435344125
2.3699936935678796,-1.333448662656208,-1.4507176742576864
2.372229750294748,-1.3540155652914887,-1.4714870923564192
2.3741737963230145,-1.3743265435999528,-1.4758504154864047
2.376046551010605,-1.3959841926653662,-1.4889403848763623
2.3776344418367477,-1.4176725207433316,-1.5063936773963056
2.3787072826168987,-1.4399617382690935,-1.5337953466526164
2.3792986943493912,-1.461838940384834,-1.5500269086961638
2.3796357441884246,-1.4823709917600683,-1.557706357404939
2.3796852611641155,-1.5029912693036536,-1.5674802012161075
2.3796283162804848,-1.5234328062212927,-1.5805701706060642
2.3791355431534265,-1.5446357983101835,-1.6067501093859793
2.3781118469348916,-1.5675773046499548,-1.6210618092523332
2.3768187376724663,-1.590565405014541,-1.6351989761934869
2.3751644057251617,-1.611506213473132,-1.657015591843416
2.3730621446298437,-1.6345252821944156,-1.6678366332057806
2.370781502380367,-1.656004206508024,-1.6809266025957386
2.368042850930823,-1.679327850031267,-1.692969374434499
2.3650676610232324,-1.7007276398221114,-1.7147859900844282
2.362371932473318,-1.7210105235859434,-1.6929693744344994
2.3598983468339836,-1.74149768865784,-1.6919221768833026
2.3567545513744483,-1.7680319872434371,-1.6875588537533166
2.3538390028023057,-1.7922259555976878,-1.6908749793321058
2.3515048197503323,-1.812177055103624,-1.679879405044542
2.347532732142391,-1.8491975705363821,-1.6776104770169495
2.3451224061427287,-1.8714200593754344,-1.6788322074933453
2.342703676832243,-1.8962861733167686,-1.666789435654585
2.338948953700756,-1.9355635827397206,-1.6688838307569775
2.3360272291463615,-1.9650046307912326,-1.6701055612333735
2.3338957831814104,-1.988766189667627,-1.660157184497006
2.3317190327238753,-2.0152559339502267,-1.6526522687134302
2.3294742902962176,-2.0437964238071054,-1.6493361431346414
2.327290264914778,-2.0706095449375446,-1.6526522687134302
2.324925220091623,-2.0978234779829434,-1.6570155918434162
2.3220186021719464,-2.132425012758295,-1.6547466638158237
2.3195569301781385,-2.1640362994263747,-1.6482889455834444
2.3166984872677117,-2.198141676854339,-1.6547466638158235
2.314175959997509,-2.22975826344746,-1.650383340685838
2.311670634401413,-2.2626278014936583,-1.6472417480322479
2.309278235146604,-2.2929856041601213,-1.6493361431346414
2.306526053081116,-2.326647750539783,-1.6526522687134302
2.3036945527078236,-2.3594084066177237,-1.6570155918434164
2.3002455755383036,-2.3949357840892698,-1.667836633205781
2.2974389645654276,-2.421408480616195,-1.6765632794657528
2.294119213496837,-2.4499199292283724,-1.6875588537533166
2.2913680686724414,-2.470323212293697,-1.7170549181120212
2.2864157282439845,-2.501512186134389,-1.728923157025583
2.281647034257517,-2.5291926092591566,-1.7420131264155398
2.2756564166085718,-2.5599473173773784,-1.7638297420654696
2.2706965605287235,-2.5817524630962154,-1.8020524526841448
2.2657402752886138,-2.6013423922749217,-1.827185193912863
2.2602429629143512,-2.621743883731279,-1.8413223608540175
2.2538255175632056,-2.644125073836347,-1.8587756533739608
2.247306882442028,-2.6654006739273144,-1.874134550791511
2.239442993182768,-2.6895525134955385,-1.8990927590950297
2.232136419886856,-2.709876536824529,-1.924225500323748
2.2232932905379257,-2.732606027086751,-1.9558159597848455
2.215119099356189,-2.7522535156756676,-1.970127659651199
2.2054841078131546,-2.7743506014234733,-1.990722544824732
2.1970239251264028,-2.7927809380134994,-2.005034244691086
2.1880202629983447,-2.8118736394414037,-2.0179496811558426
2.179120394183458,-2.829839757819385,-2.03435577612459
2.1694996839024654,-2.848838866041754,-2.043082422384562
2.1594723378801106,-2.8682242547026275,-2.0551251942233226
2.148706381969001,-2.887986205400651,-2.0802579354520403
2.138819118201732,-2.90551033130458,-2.0900317792632093
2.127727826964256,-2.924405185692344,-2.110801197361942
2.1158682344006214,-2.943784450108343,-2.128254489881886
2.104589387152818,-2.9615284649069933,-2.142391656823039
2.0922266885905674,-2.980322094113525,-2.1621138773705755
2.080013791043735,-2.998153037992757,-2.175029313835333
2.0673157314832245,-3.016436979033483,-2.1849776905717007
2.055076596062357,-3.033342979422383,-2.2045253781940373
2.0420618739241694,-3.0507157126893234,-2.221978670713981
2.0280805688477517,-3.068722990089064,-2.232974245001545
2.0118546176286816,-3.0890892565612362,-2.248158609493896
1.998764489011725,-3.1050380539029567,-2.2635175069114455
1.9842718433110333,-3.1222644824897556,-2.275560278750206
1.9699126400144165,-3.1389886621401413,-2.2820179969825856
1.9541234384217234,-3.157013181878119,-2.296155163923739
1.940223905006785,-3.172348997285768,-2.3115140613412897
1.9266501922367119,-3.1870417544969256,-2.324604030731247
1.9115063383504025,-3.202950771964368,-2.344151718353584
1.8959427462880853,-3.218576178176133,-2.3682372620311054
1.8802730557570608,-3.233632163386711,-2.383421626523457
1.8651149109133698,-3.247761118573979,-2.398780523941006
1.8502931541899945,-3.2612380715469667,-2.4075071702009785
1.833398911313527,-3.2762563790358836,-2.4226915346933287
1.8164517432597442,-3.290763478189421,-2.44677707837085
1.7988967722630167,-3.3051523679063366,-2.4652775684419894
1.7827648382542238,-3.3179426155843212,-2.4762731427295543
1.766288214397082,-3.3305139997893334,-2.497915225454283
1.7475177488656546,-3.3443811079875436,-2.5132741228718345
1.7309218716560737,-3.356413164878991,-2.514321320423031
1.7139271684238773,-3.3684821023786533,-2.531774612942974
1.6942060134603465,-3.3817748002168693,-2.5569073541716927
1.6761381723533746,-3.3934535486013604,-2.574360646691636
1.6590172291948329,-3.4042239475222313,-2.586403418530397
1.6410214045394949,-3.4151626432926796,-2.602634980573944
1.6214862732626736,-3.4265698733369963,-2.619041075542691
1.6014435054479599,-3.437860813046972,-2.634399972960241
1.5802805669747733,-3.449429852564135,-2.646268211873802
1.5600902786701103,-3.4601197459047746,-2.6637215043937448
1.5392203767227073,-3.4705664899006283,-2.685712652968874
1.519838189759254,-3.479967423087697,-2.6975808918824344
1.4998581561948932,-3.489325861683907,-2.710670861272393
1.4793052833431077,-3.4984270481939537,-2.734756404949915
1.460169618599964,-3.506561360659673,-2.746799176788675
1.4416545424103815,-3.51421844090477,-2.7509879669934616
1.4176495016259383,-3.5240240873903765,-2.7532568950210536
1.390211984181563,-3.5350891272762577,-2.7597146132534336
1.3663069480338237,-3.544187087694884,-2.782752959379758
1.345266759331586,-3.551959421044863,-2.7892106776121377
1.316859768152014,-3.5617268472336683,-2.815390616392052
1.2904021520529847,-3.569967036197944,-2.848202806329546
1.2654929388607934,-3.5768370309370487,-2.8787460682394466
1.2409624304741302,-3.582956269227348,-2.900562683889376
1.2110615121207333,-3.5894729222104007,-2.9342475384528663
1.1816886213344786,-3.5950195402704614,-2.9604274772327814
1.1564581586653557,-3.599211997694656,-2.9845130209103035
1.1326292608507371,-3.602659289223216,-3.010692959690218
1.1115079195823194,-3.6054522436105017,-3.007376834111429
1.090893376157024,-3.6080877666299105,-3.0215140010525827
1.0702328937657108,-3.610390186297627,-3.0389672935725267
1.0501227728148816,-3.612276770171831,-3.0553733885412733
1.029735965216093,-3.6138380666779026,-3.075095609088809
1.007592744068108,-3.615091404765768,-3.09027997358116
0.9861019641304091,-3.6160449459842696,-3.103369942971117
0.9647367865768312,-3.6167481058296294,-3.111049391679892
0.9438886817095377,-3.617347822768442,-3.1110493916798925
0.9220266950248877,-3.6181210678548696,-3.1056388709987095
0.9016157319875865,-3.618826756511281,-3.1133183197074845
0.877786046355177,-3.619526975036469,-3.1110493916798916
0.8549933282024187,-3.6199706113331764,-3.1307716122274276
0.8328231475086384,-3.6198784882213713,3.126233756172243
0.8103149926885925,-3.6192594525614825,3.100053817392329
0.7889044020891892,-3.6182236614036882,3.092548901608753
0.7686306647465957,-3.6172884539680976,3.101275547868724
0.7469272145531958,-3.61643409990816,3.1000538173923284
0.7268660857634358,-3.615545635681538,3.097959422289935
0.706403893131944,-3.6146670271241677,3.0990066198411323
0.6853200979622266,-3.6139019346667447,3.1077332661011035
0.6628873323547277,-3.6130113689263443,3.100053817392329
0.6400686764861541,-3.612063891503896,3.103369942971118
0.6177758741928144,-3.611107261720871,3.0935960991599494
0.5963088233176052,-3.6101428412193104,3.097959422289935
0.5746464847830461,-3.609244153178161,3.101275547868724
0.5495307221934818,-3.6081728614494626,3.096912224738739
0.5279802916885478,-3.6071546782714923,3.0958650271875423
0.5032952651008733,-3.6059264275748886,3.0902799735811604
0.48135006882393605,-3.6048059976277056,3.0902799735811604
0.4559993580741233,-3.6034379197871567,3.0859166504511744
0.4352571682630079,-3.6023004385483643,3.0859166504511744
0.4102071494139589,-3.6009438045167332,3.0881855784787664
0.3898685235253919,-3.59978452702794,3.0848694528999774
0.3693680070575747,-3.598536029803304,3.0771900041912024
0.3488398009794911,-3.597111010259387,3.0707322859588233
0.32623443456377127,-3.595436911939368,3.0663689628288378
0.30353322831030005,-3.5937063040062998,3.065147232352442
0.27872196375096747,-3.591605277749381,3.0522317958876837
0.2566322623157831,-3.589537368025827,3.0455995447301047
0.23086185347428523,-3.587115187149267,3.0476939398324987
0.2095192567616034,-3.5851278039392414,3.0476939398324987
0.18406161921583922,-3.5827553511495727,3.0489156703088947
0.1636224384286896,-3.5808202786062218,3.0422834191513157
0.14366087664897514,-3.57884480517737,3.041236221600119
0.11821804014824046,-3.576533631645381,3.05642058609247
0.09675592617451508,-3.5746487401785614,3.0553733885412737
0.07296312044371507,-3.5725789572800135,3.0522317958876837
0.052041068621308306,-3.570726517554322,3.0553733885412737
0.028921046404745104,-3.5688184642317644,3.0597367116712593
0.00841839284179502,-3.5671117467537967,3.0597367116712593
-0.016353322781411203,-3.565055230596491,3.059736711671259
-0.038133510128336094,-3.5632090595032646,3.059736711671259
-0.06382484288860735,-3.561283889436959,3.073873878612414
-0.08598912197868883,-3.559772156666232,3.0750956090888097
-0.1108524051851989,-3.558084745883055,3.0684633579312313
-0.13363324885069167,-3.556425077309343,3.0707322859588233
-0.15737865847369703,-3.554747535110798,3.0717794835100207
-0.1803854435226093,-3.5530645859446985,3.0663689628288378
-0.20646278884147024,-3.5510192396929527,3.065147232352442
-0.2265551170246179,-3.549398636701343,3.060958442147655
-0.24742091557206827,-3.5476928856992296,3.057642316568866
-0.2686053494291613,-3.5459088459684582,3.0564205860924707
-0.2963618936487535,-3.5434218740522887,3.0522317958876837
-0.3183999839746575,-3.541348279027878,3.046646742281302
-0.34185144389674416,-3.5388298052507774,3.0347785033677406
-0.36412032982841636,-3.535920643267462,3.010692959690219
-0.386008184750444,-3.5328031983906283,2.9998719183278535
-0.4071798508002183,-3.5293433092187905,2.9791025002291214
-0.4290653220844806,-3.525352863214397,2.9604274772327814
-0.44956653857536233,-3.521058066086266,2.9223792995393056
-0.47206576998966565,-3.5159422364099426,2.9180159764093196
-0.49870284518769553,-3.5094656797980437,2.90265707899177
-0.521264157181597,-3.5035483844535786,2.885203786471827
-0.5481471960392357,-3.4965415705003906,2.886425516948222
-0.5743566825242491,-3.489528139084098,2.879793265790644
-0.5958997863714993,-3.4838413029361623,2.8831093913694334
-0.6186751516282364,-3.477630804175567,2.8754299426606584
-0.6471277459341515,-3.469713639215217,2.8700194219794755
-0.6704940012214712,-3.4625045569757797,2.8415705551719688
-0.69385337779272,-3.454480024235957,2.8099800957108707
-0.7128227061857578,-3.4474083697875093,2.782752959379759
-0.7338120982415967,-3.4392089845445004,2.7576202181510405
-0.7524795871255615,-3.431630431905204,2.747846374339873
-0.7739628625521665,-3.422570361701731,2.721666435559958
-0.7930766812942859,-3.4139248837952954,2.7085764661700003
-0.8115576824356971,-3.405331419142388,2.6986280894336323
-0.8405591069063987,-3.3913071367601777,2.6867598505200707
-0.8694792262017385,-3.3763575247778252,2.661627109291353
